INDEX VERSION 1.131+C:\Users\GugaanVenkatraman\Downloads\POCWS\.metadata\.plugins\org.eclipse.jdt.core
1563750891.index
1962496263.index
3448925484.index
235623197.index
2159150075.index
3250227604.index
3941647208.index
3757564790.index
1980549723.index
887396103.index
1466048927.index
3636662726.index
2431761920.index
819494693.index
4115523871.index
3924789997.index
696018787.index
4102373108.index
2420435252.index
930122885.index
3015361437.index
813366730.index
2549688464.index
3994847092.index
244561483.index
1214161632.index
551538401.index
4073321681.index
4056862880.index
2366381727.index
2622296547.index
2220514968.index
862010603.index
2612326719.index
3339339020.index
335211976.index
4279724198.index
1755152102.index
4169120259.index
1423333945.index
1980628984.index
3703087622.index
4237052329.index
969398268.index
1995396393.index
1138683105.index
777238067.index
3879774517.index
405390234.index
4279352321.index
2985637752.index
3931295776.index
523587169.index
1508325178.index
886631414.index
172844475.index
2124870380.index
1584653403.index
1735982352.index
2967916320.index
3531560098.index
3298474113.index
3814558929.index
2504246175.index
3270356957.index
727525231.index
1000262774.index
3688673763.index
2367175646.index
3643788603.index
2854776922.index
1377887577.index
2046913886.index
880848238.index
151678987.index
671832465.index
3319951515.index
2636558068.index
3648141872.index
1706524860.index
509578451.index
3911041958.index
1901609708.index
2461244205.index
847089294.index
654717868.index
2141978029.index
688572875.index
715307428.index
3506654133.index
702022547.index
1057733025.index
278338947.index
776529765.index
3533236182.index
79957172.index
3689544868.index
1487758172.index
476604795.index
3593099699.index
511307655.index
3603613880.index
1084556110.index
1632238658.index
4055791488.index
3991135902.index
4093241648.index
886965056.index
3207181920.index
2841819987.index
3516053789.index
2134199854.index
3293639473.index
596492522.index
2071107375.index
1530993091.index
3483613318.index
1653017090.index
1441529882.index
247559273.index
633872021.index
3535168726.index
4219716369.index
897738398.index
498905544.index
3338830658.index
2142433476.index
1134117417.index
223102637.index
2662711242.index
2720684091.index
2102515725.index
602766006.index
49500907.index
981276135.index
1755156632.index
926192198.index
1277993204.index
82739110.index
3235552414.index
4102659686.index
2846480686.index
1409719832.index
1067057394.index
331224590.index
1916841461.index
2265380815.index
2752746768.index
2134203389.index
2512221058.index
133969532.index
61894912.index
1315805531.index
3326854588.index
1028538080.index
3292360522.index
983869906.index
1644029486.index
2141575536.index
785059429.index
1747716772.index
3487273482.index
3168845743.index
3609086659.index
1466855828.index
1409049894.index
709745787.index
3638068855.index
1347289001.index
313754454.index
4041136123.index
528045589.index
2885263340.index
1421936206.index
578637333.index
2135073256.index
2453535611.index
2887667090.index
3850804630.index
1564037977.index
2412220446.index
3175386868.index
232561030.index
295505042.index
639402459.index
1003094365.index
888447371.index
2335152154.index
1882042389.index
2873935504.index
3962267712.index
2435432913.index
3392360191.index
4044262372.index
2349144838.index
2709230810.index
2513918375.index
3113380981.index
553809806.index
2563985486.index
2231280673.index
203307408.index
2907169360.index
2663925170.index
1507812477.index
3086189345.index
914180238.index
3078650591.index
3600086250.index
344841355.index
3469683795.index
3623863466.index
3289593838.index
144589620.index
177266490.index
2814598199.index
2130953700.index
1376608305.index
2503904819.index
1215726157.index
3737004430.index
2663251059.index
1099350068.index
4098205714.index
4080897148.index
3807927820.index
3206346310.index
2540225755.index
3925205184.index
1043039812.index
3594221260.index
548686068.index
2105976375.index
1145973092.index
570605019.index
3307653485.index
864228262.index
1657398851.index
1175254124.index
3830461425.index
2293717561.index
2728898164.index
3812730966.index
1758231410.index
3453795557.index
1565214146.index
403540144.index
2247224413.index
1379130593.index
2338479499.index
584401363.index
2312044230.index
1791131632.index
4209668716.index
4045162885.index
3987282338.index
4070312886.index
3720815034.index
1058153606.index
2433499261.index
3645564386.index
4268489220.index
1018049565.index
2499587211.index
496696935.index
1116341062.index
1456162620.index
4230912704.index
2435745979.index
1172293178.index
2513412869.index
3455938418.index
3538913635.index
745596465.index
627689225.index
1160487973.index
986932632.index
1828895086.index
1173895630.index
2096127980.index
299607678.index
1852045506.index
3029869210.index
1565311282.index
1374827534.index
2141965267.index
15106444.index
1031069043.index
3074236407.index
1507919539.index
136644410.index
2779202542.index
3293984267.index
2398066026.index
2323604189.index
3493268732.index
3458864620.index
3089666935.index
1142501068.index
2642539740.index
2190779808.index
1148672729.index
